P1 (hPa)T1 (K)  Q1 (kg/kg)
1000    303.607 0.015630266
975     302.107 0.014663499
950     300.707 0.013838611
925     299.007 0.012960599
900     297.107 0.012450586
850     292.907 0.011635414
800     289.707 0.010222204
750     287.007 0.008862789
700     284.107 0.007627777
650     280.74  0.006408721
600     276.934 0.005242957
550     272.768 0.00400982
500     268.4   0.002735817
450     264.013 0.001657231
400     258.8   0.00093506
350     251.741 0.000501946
300     243.6   0.000234454
250     234.307 7.02248E-05
200     222.1   1.8567E-05
150     207.01  2.43236E-05
100     195.8   8.08681E-06
70      202.162 7.02427E-06
50      209.3   3.84619E-06
30      213.9   6.47876E-06
20      220.4   2.15712E-05
10      230.8   1.86985E-05
7       233.2   2.08881E-05
5       236.178 2.57689E-05
3       242.8   2.94087E-05
2       249.8   3.90135E-05
1       247.3   2.52986E-06
